# k2200_voltage_set	lockin1_X	lockin1_Y	lockin2_X	lockin2_Y
# "voltage"	"X"	"Y"	"X"	"Y"
# 101
10	1.52589e-05	-1.07289e-06	2.14578e-06	8.94074e-08
9.9	1.59146e-05	-9.53682e-07	1.99677e-06	1.1921e-07
9.8	1.53781e-05	-9.53682e-07	2.02657e-06	8.94074e-08
9.7	1.4484e-05	-1.01329e-06	1.93717e-06	5.96051e-08
9.6	1.35303e-05	-1.01329e-06	1.93717e-06	8.94074e-08
9.5	1.25766e-05	-1.01329e-06	2.14578e-06	8.94074e-08
9.4	1.18614e-05	-9.53682e-07	2.3544e-06	8.94074e-08
9.3	1.31131e-05	-9.53682e-07	2.59282e-06	8.94074e-08
9.2	1.45436e-05	-9.53682e-07	2.71203e-06	1.1921e-07
9.1	1.5855e-05	-9.53682e-07	2.86104e-06	8.94074e-08
9	1.69278e-05	-1.01329e-06	3.01005e-06	8.94074e-08
8.9	1.83583e-05	-1.07289e-06	3.21867e-06	8.94074e-08
8.8	1.97293e-05	-1.07289e-06	3.33787e-06	8.94074e-08
8.7	2.10406e-05	-1.07289e-06	3.54649e-06	1.49013e-07
8.6	2.20538e-05	-9.53682e-07	3.7253e-06	1.78815e-07
8.5	2.30075e-05	-1.1921e-06	3.87433e-06	1.49013e-07
8.4	2.3842e-05	-1.1921e-06	3.96374e-06	1.49013e-07
8.3	2.46168e-05	-1.1325e-06	3.99354e-06	1.78815e-07
8.2	2.54513e-05	-1.1325e-06	4.02334e-06	1.78815e-07
8.1	2.62262e-05	-1.1325e-06	3.99354e-06	2.08617e-07
8	2.71202e-05	-1.2517e-06	4.02334e-06	1.49013e-07
7.9	2.74779e-05	-1.31131e-06	4.02334e-06	2.08617e-07
7.8	2.78951e-05	-1.2517e-06	3.96374e-06	1.78815e-07
7.7	2.75971e-05	-1.2517e-06	3.87433e-06	1.78815e-07
7.6	2.74183e-05	-1.49012e-06	3.75511e-06	1.49013e-07
7.5	2.68222e-05	-1.1921e-06	3.78491e-06	1.49013e-07
7.4	2.59877e-05	-1.31131e-06	3.84453e-06	1.49013e-07
7.3	2.52129e-05	-1.2517e-06	3.87433e-06	1.49013e-07
7.2	2.46168e-05	-1.31131e-06	3.90413e-06	1.1921e-07
7.1	2.414e-05	-1.2517e-06	3.7253e-06	1.49013e-07
7	2.34247e-05	-1.37091e-06	3.39748e-06	8.94074e-08
6.9	2.25903e-05	-1.1325e-06	3.01005e-06	1.1921e-07
6.8	2.17558e-05	-1.1921e-06	2.80143e-06	1.49013e-07
6.7	2.06829e-05	-1.1921e-06	2.74183e-06	1.49013e-07
6.6	1.92524e-05	-1.1325e-06	2.71203e-06	1.1921e-07
6.5	1.84776e-05	-1.1325e-06	2.71203e-06	1.1921e-07
6.4	1.75835e-05	-1.07289e-06	2.86104e-06	8.94074e-08
6.3	1.69874e-05	-1.1325e-06	3.09946e-06	8.94074e-08
6.2	1.74047e-05	-1.01329e-06	3.84453e-06	8.94074e-08
6.1	1.99677e-05	-1.01329e-06	4.29156e-06	1.49013e-07
6	2.27095e-05	-1.01329e-06	4.7088e-06	1.49013e-07
5.9	2.49745e-05	-1.37091e-06	5.12603e-06	1.78815e-07
5.8	2.71202e-05	-1.31131e-06	5.45385e-06	2.3842e-07
5.7	2.94448e-05	-1.37091e-06	5.57306e-06	2.3842e-07
5.6	3.26636e-05	-1.72854e-06	5.78168e-06	2.98025e-07
5.5	3.5763e-05	-1.78815e-06	6.34792e-06	3.5763e-07
5.4	3.97565e-05	-2.02657e-06	7.09298e-06	3.87432e-07
5.3	4.36308e-05	-2.26499e-06	7.51021e-06	3.87432e-07
5.2	4.64919e-05	-2.3842e-06	7.92748e-06	3.27827e-07
5.1	4.94721e-05	-2.68222e-06	8.34471e-06	4.47037e-07
5	5.24523e-05	-2.80143e-06	8.67253e-06	3.5763e-07
4.9	5.49557e-05	-3.15906e-06	8.85135e-06	3.5763e-07
4.8	5.74591e-05	-3.45708e-06	8.82155e-06	3.87432e-07
4.7	5.90088e-05	-3.51669e-06	8.94075e-06	3.87432e-07
4.6	5.93665e-05	-3.75511e-06	9.26858e-06	3.5763e-07
4.5	5.87108e-05	-3.75511e-06	9.32819e-06	3.27827e-07
4.4	5.78167e-05	-3.51669e-06	9.29838e-06	3.27827e-07
4.3	5.66246e-05	-3.39748e-06	9.14937e-06	3.27827e-07
4.2	5.47769e-05	-3.39748e-06	8.85135e-06	3.27827e-07
4.1	5.33464e-05	-3.33787e-06	8.40431e-06	3.27827e-07
4	5.20947e-05	-3.15906e-06	8.07649e-06	3.27827e-07
3.9	5.04258e-05	-3.15906e-06	7.77846e-06	3.27827e-07
3.8	4.8578e-05	-2.92064e-06	6.88437e-06	3.27827e-07
3.7	4.55382e-05	-2.56301e-06	5.66247e-06	2.98025e-07
3.6	4.25579e-05	-2.3246e-06	4.41077e-06	4.47037e-07
3.5	3.93393e-05	-2.14578e-06	3.33787e-06	3.5763e-07
3.4	3.5167e-05	-1.84775e-06	2.71203e-06	3.5763e-07
3.3	3.16503e-05	-1.78815e-06	1.54973e-06	2.98025e-07
3.2	2.78951e-05	-1.54973e-06	1.1623e-06	2.3842e-07
3.1	3.24252e-05	-1.66894e-06	1.60933e-06	3.27827e-07
3	4.29752e-05	-2.3246e-06	4.29156e-06	3.27827e-07
2.9	5.58498e-05	-3.27827e-06	6.25852e-06	3.5763e-07
2.8	6.5804e-05	-4.17235e-06	7.56982e-06	3.27827e-07
2.7	7.32546e-05	-4.94721e-06	8.34471e-06	4.76841e-07
2.6	7.54599e-05	-5.30484e-06	8.91095e-06	4.76841e-07
2.5	8.00495e-05	-6.13931e-06	9.77522e-06	3.87432e-07
2.4	8.73213e-05	-7.3314e-06	1.03713e-05	3.5763e-07
2.3	9.38778e-05	-8.40431e-06	1.12951e-05	2.3842e-07
2.2	0.000103653	-9.95403e-06	1.37389e-05	2.98025e-07
2.1	0.000113011	-1.18018e-05	1.61828e-05	2.3842e-07
2	0.000121654	-1.36495e-05	1.79113e-05	8.94074e-08
1.9	0.000130356	-1.56761e-05	1.88948e-05	8.94074e-08
1.8	0.00014192	-1.84776e-05	2.10406e-05	-5.96051e-08
1.7	0.000156463	-2.20538e-05	2.33055e-05	-2.68223e-07
1.6	0.000168265	-2.50341e-05	2.46466e-05	-3.87432e-07
1.5	0.000181735	-2.90872e-05	2.58387e-05	-6.25852e-07
1.4	0.000202418	-3.59418e-05	2.93256e-05	-1.2517e-06
1.3	0.000225545	-4.45249e-05	3.32894e-05	-2.05637e-06
1.2	0.000248196	-5.37636e-05	3.68359e-05	-2.92064e-06
1.1	0.000271382	-6.40755e-05	3.98757e-05	-3.42728e-06
1	0.000296356	-7.70097e-05	4.3005e-05	-4.20216e-06
0.9	0.00032294	-9.22685e-05	4.53296e-05	-4.52998e-06
0.799999999999999	0.00034851	-0.000109077	4.8727e-05	-5.27504e-06
0.699999999999999	0.000377776	-0.00012833	5.49259e-05	-6.40753e-06
0.6	0.000412228	-0.000153006	6.44927e-05	-9.23878e-06
0.5	0.000450971	-0.000184895	7.68011e-05	-1.37687e-05
0.399999999999999	0.000496034	-0.000224532	9.36692e-05	-1.94908e-05
0.299999999999999	0.000540022	-0.000270607	0.000115484	-2.84017e-05
0.199999999999999	0.00057495	-0.000308456	0.000140638	-3.94883e-05
0.0999999999999996	0.000601355	-0.000342252	0.000164569	-5.04258e-05
0	0.00061119	-0.000369193	0.000164838	-5.17371e-05
